"Time (s)","Linear Acceleration x (m/s^2)","Linear Acceleration y (m/s^2)","Linear Acceleration z (m/s^2)","Absolute acceleration (m/s^2)"
3.663564200E-2,1.069785118E0,-1.836714268E0,1.496201038E0,2.599341657E0
4.663564200E-2,1.067242146E0,-1.850755215E0,1.514780045E0,2.618942391E0
5.663564200E-2,1.064895391E0,-1.864507198E0,1.533032894E0,2.638290951E0
6.663497500E-2,1.062719941E0,-1.877975464E0,1.550997734E0,2.657397126E0
7.663447500E-2,1.073959112E0,-1.871137142E0,1.540279865E0,2.650849759E0
8.663347500E-2,1.083545923E0,-1.867054939E0,1.533454418E0,2.647913965E0
9.663280800E-2,1.090416431E0,-1.865132332E0,1.529897690E0,2.647321958E0
1.066319500E-1,1.094883084E0,-1.864709854E0,1.528665543E0,2.648155990E0
1.166309500E-1,1.098238945E0,-1.865014553E0,1.528558254E0,2.649697794E0
1.266300610E-1,1.102150440E0,-1.864585400E0,1.527402878E0,2.650353534E0
1.366290610E-1,1.107074261E0,-1.861730099E0,1.522943974E0,2.647831325E0
1.466279700E-1,1.111911058E0,-1.854598999E0,1.512957096E0,2.639114022E0
1.566269700E-1,1.115804911E0,-1.845625877E0,1.500746250E0,2.627469274E0
1.666258930E-1,1.118460178E0,-1.835784435E0,1.487636566E0,2.614215029E0
1.766247500E-1,1.119797945E0,-1.825955868E0,1.474782467E0,2.600585625E0
1.866236830E-1,1.120359778E0,-1.815877914E0,1.461775780E0,2.586388807E0
1.966226200E-1,1.121713400E0,-1.804759979E0,1.447356701E0,2.571038886E0
2.066216200E-1,1.122437954E0,-1.792695045E0,1.431894302E0,2.554201202E0
2.166205640E-1,1.118146300E0,-1.780428886E0,1.416957378E0,2.535339500E0
2.266195640E-1,1.104996681E0,-1.769922256E0,1.405616283E0,2.515829803E0
2.366186140E-1,1.085582018E0,-1.763648033E0,1.400597095E0,2.500122982E0
2.466177090E-1,1.064553857E0,-1.761528969E0,1.401131630E0,2.489865271E0
2.566167540E-1,1.045879960E0,-1.761410236E0,1.403888702E0,2.483411847E0
2.666158400E-1,1.032313228E0,-1.760828018E0,1.405302048E0,2.478116171E0
2.766148810E-1,1.023772955E0,-1.758547783E0,1.403788090E0,2.472088665E0
2.866138810E-1,1.016582251E0,-1.755111217E0,1.400621891E0,2.464872520E0
2.966129190E-1,1.007165909E0,-1.752075195E0,1.398334503E0,2.457537394E0
3.066119190E-1,9.939565659E-1,-1.750957012E0,1.399111271E0,2.451797802E0
3.166109540E-1,9.745175838E-1,-1.756050110E0,1.408762455E0,2.453162890E0
3.266099540E-1,9.517252445E-1,-1.762606144E0,1.420937061E0,2.455936378E0
3.366089200E-1,9.262596369E-1,-1.770408154E0,1.435276508E0,2.460146459E0
3.466078860E-1,8.983919621E-1,-1.777219772E0,1.448948860E0,2.462736493E0
3.566067860E-1,8.688192368E-1,-1.782131672E0,1.460683823E0,2.462607844E0
3.666056860E-1,8.382493258E-1,-1.785469532E0,1.470769882E0,2.460432366E0
3.766045860E-1,8.081287146E-1,-1.790789604E0,1.483494282E0,2.461860010E0
3.866035190E-1,7.781002522E-1,-1.801455975E0,1.503249168E0,2.471930762E0
3.966023520E-1,7.491819859E-1,-1.818699837E0,1.531524658E0,2.492892000E0
4.066012520E-1,7.241009474E-1,-1.841423035E0,1.566457748E0,2.523678041E0
4.166001520E-1,-1.337265015E0,-5.680068016E0,3.444087982E0,6.775927421E0
4.265989850E-1,-1.347549558E0,-5.705003738E0,3.479434967E0,6.816848623E0
4.365978850E-1,-1.350903749E0,-5.734441757E0,3.519633770E0,6.862695176E0
4.465967850E-1,-5.729308724E-1,-6.307744503E0,1.237858200E1,1.390486184E1
4.565956850E-1,-6.418890357E-1,-6.299646854E0,1.142364311E1,1.306128608E1
4.665945850E-1,-4.420732260E-1,-6.202625751E0,1.005660152E1,1.182384156E1
4.765934850E-1,-2.829026580E-1,-6.212330818E0,9.189596176E0,1.109602478E1
4.865923850E-1,-1.585133076E-1,-6.373249054E0,8.330009460E0,1.048963715E1
4.965912510E-1,-2.601338029E-1,-6.628205776E0,7.495371342E0,1.000906454E1
5.065900510E-1,-5.453668833E-1,-6.871558666E0,6.687863827E0,9.604335797E0
5.165889170E-1,-1.029200196E0,-7.072712421E0,5.860428333E0,9.242680038E0
5.265877170E-1,-1.487827063E0,-7.159281731E0,4.593677044E0,8.635439366E0
5.365864500E-1,-1.902003527E0,-7.168742657E0,3.374495983E0,8.148356388E0
5.465851500E-1,-2.250637770E0,-7.095686436E0,2.020972013E0,7.713524761E0
5.565838830E-1,-2.335186005E0,-7.074212074E0,3.906161785E-1,7.459902891E0
5.665825830E-1,-1.480201244E0,-6.626174927E0,-7.795858383E-2,6.789938691E0
5.765813160E-1,-8.750488162E-1,-6.406748772E0,-1.568215966E0,6.653678800E0
5.865800820E-1,-8.051226139E-1,-6.083756447E0,-2.751737356E0,6.725501721E0
5.965788480E-1,-7.147693634E-1,-6.258992195E0,-4.445439339E0,7.710240558E0
6.065776140E-1,-6.422128677E-1,-5.842654228E0,-4.420875549E0,7.354807028E0
6.165763140E-1,-1.509279728E0,-5.918771744E0,-6.528883934E0,8.940699619E0
6.265750800E-1,-2.240847349E0,-6.338014603E0,-5.635487080E0,8.772145722E0
6.365738460E-1,-2.260094404E0,-6.892981052E0,-6.968307495E0,1.005875359E1
6.465725460E-1,-2.814453840E0,-6.142845154E0,-4.325855255E0,8.023011946E0
6.565713120E-1,-3.456750154E0,-7.115462303E0,-2.831760645E0,8.402249328E0
6.665700780E-1,-2.442897558E0,-8.924456596E0,-4.579948425E0,1.032422402E1
6.765687780E-1,-2.734940290E0,-9.113332748E0,-5.568236351E0,1.102442689E1
6.865675440E-1,-1.662803888E0,-9.907328606E0,-5.976493835E0,1.168924957E1
6.965663100E-1,-1.087214708E0,-1.021894932E1,-5.570204735E0,1.168914632E1
7.065650430E-1,-6.461546421E-1,-1.068889236E1,-5.444444656E0,1.201298936E1
7.165638090E-1,-8.301579952E-1,-1.084924221E1,-5.319395065E0,1.211161355E1
7.265625750E-1,-1.178979874E0,-1.090642452E1,-5.557075500E0,1.229720202E1
7.365613410E-1,-1.249026418E0,-1.089188671E1,-4.591694832E0,1.188599699E1
7.465601070E-1,-1.518187881E0,-1.069365215E1,-3.273738861E0,1.128611789E1
7.565588070E-1,-1.882720113E0,-1.017864704E1,-2.210465193E0,1.058468927E1
7.665575400E-1,-1.895606041E0,-9.772854805E0,-1.123777866E0,1.001822789E1
7.765563060E-1,-2.009694576E0,-9.655668259E0,-1.379798651E0,9.958646802E0
7.865550060E-1,-8.946317434E-1,-8.644923210E0,9.031901360E-1,8.737895381E0
7.965537720E-1,-5.988262892E-1,-6.971464634E0,3.454609871E0,7.803476240E0
8.065525380E-1,1.621100307E-1,-6.423850060E0,6.166896820E0,8.906331772E0
8.165513040E-1,6.910895109E-1,-5.688712120E0,1.005076218E1,1.156965300E1
8.265500700E-1,9.210230112E-1,-5.601807594E0,1.458748817E1,1.565322149E1
8.365488030E-1,1.940889359E-1,-5.851571560E0,1.836759186E1,1.927814802E1
8.465476030E-1,-1.191766500E0,-6.011184216E0,2.149081612E1,2.234747906E1
8.565463690E-1,-2.650825739E0,-6.059890270E0,2.401712608E1,2.491127240E1
8.665451020E-1,-3.190782547E0,-6.187877178E0,2.609951591E1,2.701213891E1
8.765438680E-1,-3.023913383E0,-6.409477234E0,2.664507294E1,2.757145920E1
8.865426010E-1,-3.273363113E0,-6.043567657E0,2.643241882E1,2.731139654E1
8.965412340E-1,-3.145603180E0,-5.845084190E0,2.571820641E1,2.656098585E1
9.065399670E-1,-2.560187340E0,-5.775086403E0,2.508271790E1,2.586597996E1
9.165387000E-1,-1.892822742E0,-5.854078293E0,2.434753990E1,2.511285945E1
9.265373660E-1,-1.396643400E0,-5.874128342E0,2.322251129E1,2.399460413E1
9.365360990E-1,-1.103485942E0,-5.882210732E0,2.195140266E1,2.275262981E1
9.465348320E-1,-8.595085144E-1,-6.103639126E0,2.040533066E1,2.131597253E1
9.565335650E-1,-7.153222561E-1,-6.419441700E0,1.944882774E1,2.049336035E1
9.665322980E-1,-6.805844903E-1,-6.720004559E0,1.787585831E1,1.910936856E1
9.765310310E-1,-8.015879989E-1,-7.008376598E0,1.639403152E1,1.784724504E1
9.865297640E-1,-1.099713445E0,-7.053143501E0,1.476173210E1,1.639710150E1
9.965284970E-1,-1.237421632E0,-7.109517574E0,1.264744949E1,1.456140210E1
1.006527230E0,-8.525961637E-1,-7.491899967E0,9.412584305E0,1.206035773E1
1.016525996E0,-4.610518217E-1,-8.083059311E0,6.897002220E0,1.063565025E1
1.026524762E0,-6.891490817E-1,-8.578452110E0,4.123148918E0,9.542804832E0
1.036523462E0,-1.388937235E0,-8.397397995E0,2.280445099E-1,8.514543090E0
1.046522228E0,-2.043941259E0,-8.225765228E0,-3.041127205E0,9.004963306E0
1.056520961E0,-2.226643801E0,-7.686305046E0,-6.506193638E0,1.031347582E1
1.066519761E0,-2.695280075E0,-8.757826805E0,-6.300377846E0,1.112019901E1
1.076518527E0,-2.624972343E0,-8.861035347E0,-5.605862141E0,1.080898319E1
1.086517293E0,-1.433610678E0,-1.026859856E1,-6.846804619E0,1.242489796E1
1.096516059E0,-2.830761909E0,-9.117650032E0,-8.014553070E0,1.246506382E1
1.106514825E0,-2.640291214E0,-1.072834015E1,-9.795169830E0,1.476528943E1
1.116513525E0,-2.608658075E0,-1.058238602E1,-1.204986572E1,1.624780769E1
1.126512291E0,-2.593627691E0,-1.061571217E1,-1.414331245E1,1.787326318E1
1.136511091E0,-2.384732723E0,-1.074512863E1,-1.448590469E1,1.819302543E1
1.146509791E0,-2.524068832E0,-1.057398033E1,-1.382139969E1,1.758439856E1
1.156508557E0,-2.316886663E0,-1.079969692E1,-1.318309975E1,1.719870740E1
1.166507323E0,-1.764934182E0,-1.112441158E1,-1.267872143E1,1.695928957E1
1.176506023E0,-4.743265808E-1,-1.107322884E1,-1.209038067E1,1.640178915E1
1.186504789E0,3.805510402E-1,-1.087159348E1,-9.441353798E0,1.440401074E1
1.196503589E0,8.079722524E-1,-9.969106674E0,-8.544116974E0,1.315438489E1
1.206502355E0,1.489569187E0,-9.826038361E0,-7.098999977E0,1.221333889E1
1.216501121E0,1.324631691E0,-9.758504868E0,-7.260178566E0,1.223491966E1
1.226499887E0,1.612335205E0,-9.838379860E0,-6.762925148E0,1.204701206E1
1.236498653E0,1.171986103E0,-9.921312332E0,-7.381747246E0,1.242160144E1
1.246497419E0,8.097915649E-1,-1.015938282E1,-8.050442696E0,1.298762678E1
1.256496152E0,5.715943575E-1,-1.046272278E1,-7.886907578E0,1.311482364E1
1.266494952E0,7.494306564E-2,-1.077594185E1,-7.399406910E0,1.307202210E1
1.276493818E0,-3.973138332E-1,-1.104709148E1,-6.281414032E0,1.271425384E1
1.286492618E0,-1.011530876E0,-1.113438892E1,-4.938999653E0,1.222258275E1
1.296491484E0,-2.356895924E0,-1.095680428E1,-2.693920135E0,1.152665277E1
1.306490317E0,-3.019339085E0,-1.094270325E1,1.129660606E0,1.140768583E1
1.316489150E0,-3.116825104E0,-1.068677902E1,3.337367058E0,1.162152587E1
1.326487983E0,-3.421737194E0,-9.631596565E0,6.198682785E0,1.195406233E1
1.336486816E0,-1.255364060E0,-9.500232697E0,8.850955963E0,1.304491402E1
1.346485649E0,-1.038665771E-1,-8.202528000E0,1.118048096E1,1.386706199E1
1.356484515E0,2.578513622E-1,-7.034411907E0,1.258189297E1,1.441712415E1
1.366483281E0,-1.746919155E-1,-6.291047096E0,1.431358433E1,1.563606367E1
1.376482114E0,-7.512603998E-1,-6.804220676E0,1.547024345E1,1.691715826E1
1.386480947E0,-1.799077749E0,-6.877687454E0,1.749989700E1,1.888877075E1
1.396479713E0,-2.579468489E0,-7.082374096E0,1.915509033E1,2.058473138E1
1.406478546E0,-3.440140724E0,-6.828132153E0,2.119282532E1,2.252984247E1
1.416477379E0,-3.158638239E0,-6.975315094E0,2.308586121E1,2.432260274E1
1.426476145E0,-1.987845659E0,-6.301627636E0,2.460173988E1,2.547366575E1
1.436474978E0,-9.035373926E-1,-6.260389328E0,2.572257423E1,2.648885954E1
1.446473811E0,-4.102368355E-1,-6.144932270E0,2.599290085E1,2.671253229E1
1.456472644E0,-5.474448204E-1,-6.008730412E0,2.582843399E1,2.652381080E1
1.466471477E0,-9.926564693E-1,-6.188541889E0,2.526100159E1,2.602694025E1
1.476470310E0,-1.700748205E0,-6.652833939E0,2.450257874E1,2.544659326E1
1.486469143E0,-2.432503939E0,-7.203467369E0,2.295640182E1,2.418270875E1
1.496467976E0,-2.598071575E0,-7.391481876E0,2.181267929E1,2.317707829E1
1.506466742E0,-2.447851896E0,-7.698164940E0,2.031364250E1,2.186087359E1
1.516465575E0,-2.293210745E0,-7.846633434E0,1.886547089E1,2.056050738E1
1.526464408E0,-2.152268410E0,-7.998481750E0,1.753591537E1,1.939371799E1
1.536463174E0,-1.711568594E0,-8.356762886E0,1.583694267E1,1.798815461E1
1.546462007E0,-1.217163801E0,-8.673924446E0,1.348895836E1,1.608323508E1
1.556460807E0,-6.968992949E-1,-8.795382500E0,1.115793800E1,1.422476722E1
1.566459607E0,-2.296254635E-1,-8.865440369E0,9.035612106E0,1.266061005E1
1.576458340E0,-3.179436922E-1,-8.576272011E0,6.636854649E0,1.084902620E1
1.586457073E0,-2.324881554E-1,-8.410327911E0,4.005418777E0,9.318317761E0
1.596455773E0,1.595741510E-1,-8.492029190E0,6.039061546E-1,8.514970717E0
1.606454506E0,7.189327478E-1,-8.833430290E0,-2.708657026E0,9.267317728E0
1.616453172E0,2.254948616E-1,-8.615481377E0,-7.503264427E0,1.142700067E1
1.626451905E0,-5.670823455E-1,-8.952789307E0,-1.082745457E1,1.406086026E1
1.636450638E0,-1.509321570E0,-9.855439186E0,-1.246074581E1,1.595863150E1
1.646449304E0,-3.206058025E0,-1.087718201E1,-1.446082115E1,1.837681270E1
1.656448037E0,-4.124810219E0,-1.100725174E1,-1.485473347E1,1.894298700E1
1.666446737E0,-3.890493631E0,-1.111089230E1,-1.463640976E1,1.878330000E1
1.676445437E0,-4.812775612E0,-1.117092896E1,-1.561021233E1,1.978967386E1
1.686444203E0,-4.714682579E0,-1.190120316E1,-1.598461342E1,2.047864093E1
1.696442969E0,-4.758174419E0,-1.124298859E1,-1.446218014E1,1.892616365E1
1.706441735E0,-3.487665892E0,-1.174864292E1,-1.422394276E1,1.877538206E1
1.716440501E0,-2.316201210E0,-1.243243504E1,-1.168553162E1,1.721864914E1
1.726439267E0,-1.145599604E0,-1.183247566E1,-1.075718307E1,1.603236933E1
1.736438033E0,-2.404764891E-1,-1.175376129E1,-9.738491058E0,1.526587507E1
1.746436799E0,5.323191881E-1,-1.118829536E1,-8.485284805E0,1.405209504E1
1.756435499E0,1.319770575E0,-1.107588387E1,-8.130245209E0,1.380282163E1
1.766434265E0,1.581284761E0,-1.095873451E1,-8.341522217E0,1.386273121E1
1.776433031E0,9.475503564E-1,-1.083778572E1,-8.207788467E0,1.362803150E1
1.786431731E0,-1.538282037E-1,-1.100574493E1,-8.488939285E0,1.390007823E1
1.796430497E0,-5.647407174E-1,-1.113524818E1,-8.422548294E0,1.397326032E1
1.806429263E0,-5.613768101E-1,-1.160395145E1,-7.888266563E0,1.404249204E1
1.816428029E0,-6.563028097E-1,-1.150879669E1,-8.047612190E0,1.405870537E1
1.826426762E0,-1.394146681E0,-1.193745613E1,-6.480677128E0,1.365451134E1
1.836425528E0,-2.302338600E0,-1.175007725E1,-5.530632019E0,1.318912313E1
1.846424294E0,-2.933414936E0,-1.130339050E1,-3.339284897E0,1.214587929E1
1.856423060E0,-2.912003517E0,-1.071295261E1,-5.293526649E-1,1.111428506E1
1.866421760E0,-1.605655193E0,-1.023106575E1,2.983832359E0,1.077757350E1
1.876420526E0,-2.287256718E-1,-9.791694641E0,6.993855953E0,1.203509952E1
1.886419259E0,6.825048923E-1,-8.959177017E0,1.101188469E1,1.421246883E1
1.896417992E0,3.043920517E0,-8.863027573E0,1.387108326E1,1.673994207E1
1.906416758E0,3.302530527E0,-7.496020317E0,1.660959244E1,1.851960014E1
1.916415524E0,3.081886768E0,-6.991617680E0,1.815788078E1,1.969998422E1
1.926414224E0,2.174975634E0,-5.640343189E0,1.638980484E1,1.746910682E1
1.936412990E0,1.548622847E0,-6.304248810E0,1.850721359E1,1.961271885E1
1.946411756E0,3.334348202E-1,-6.219375134E0,1.886108589E1,1.986283884E1
1.956410522E0,-7.505493164E-1,-5.513832092E0,1.946601486E1,2.024577495E1
1.966409322E0,3.299214840E-1,-6.119947910E0,2.081595993E1,2.169946540E1
1.976408055E0,6.341722012E-1,-5.832832813E0,2.159812927E1,2.238086909E1
1.986406788E0,1.578093290E0,-5.392905235E0,2.195286751E1,2.266058687E1
1.996405521E0,2.390601635E0,-5.267493725E0,2.227590752E1,2.301472403E1
2.006404187E0,2.690502644E0,-5.476775169E0,2.268581390E1,2.349212683E1
2.016402920E0,2.239993334E0,-6.008180141E0,2.317035294E1,2.404123653E1
2.026401653E0,9.835245609E-1,-6.668851852E0,2.383798981E1,2.477278070E1
2.036400319E0,3.832514286E-1,-7.291852474E0,2.365700150E1,2.475826557E1
2.046399052E0,7.205772400E-2,-7.943481445E0,2.284632683E1,2.418798750E1
2.056397785E0,-3.559429646E-1,-8.378118515E0,2.188821411E1,2.343957086E1
2.066396518E0,-7.300678492E-1,-8.916174889E0,2.052323341E1,2.238826218E1
2.076395251E0,-9.424821138E-1,-9.420014381E0,1.937166214E1,2.156122069E1
2.086394017E0,-1.004074574E0,-9.769945145E0,1.766532326E1,2.021196773E1
2.096392783E0,-9.038205147E-1,-1.000025749E1,1.781416893E1,2.044912360E1
2.106391549E0,-1.719033718E-1,-1.034731102E1,1.357054329E1,1.706622516E1
2.116390215E0,1.360082626E-2,-1.057604408E1,1.127838707E1,1.546140059E1
2.126389015E0,1.275022030E-1,-1.089297676E1,9.109292984E0,1.420043725E1
2.136387781E0,-1.331819296E-1,-1.084476948E1,7.313647747E0,1.308113932E1
2.146386481E0,-3.722587824E-1,-1.063699055E1,4.695367813E0,1.163316910E1
2.156385247E0,-8.263731003E-2,-1.079622364E1,2.216499329E0,1.102171235E1
2.166384013E0,4.486055374E-1,-1.115675163E1,-6.721181870E-1,1.118597769E1
2.176382679E0,6.647518873E-1,-1.058548737E1,-6.137012482E0,1.225387123E1
2.186381479E0,1.676749945E0,-1.133973122E1,-6.794701099E0,1.332550027E1
2.196380245E0,2.455508709E-1,-1.044267845E1,-1.013672829E1,1.455551747E1
2.206379011E0,-1.304087996E0,-1.036484051E1,-1.188827896E1,1.582598309E1
2.216377777E0,-2.178002596E0,-1.065751839E1,-1.258855724E1,1.663725239E1
2.226376543E0,-3.113426208E0,-1.141133595E1,-1.166542435E1,1.661307124E1
2.236375309E0,-4.331436634E0,-1.126203918E1,-1.323290634E1,1.790822940E1
2.246374075E0,-4.739508152E0,-1.116232491E1,-1.405646515E1,1.856460738E1
2.256372775E0,-4.810462475E0,-1.173691750E1,-1.404928207E1,1.892823574E1
2.266371541E0,-5.278183460E0,-1.176425171E1,-1.379392147E1,1.888197840E1
2.276370307E0,-4.943862438E0,-1.207215881E1,-1.407810211E1,1.919301314E1
2.286369007E0,-3.856486797E0,-1.210699081E1,-1.369640160E1,1.868269610E1
2.296367773E0,-2.172440052E0,-1.205556011E1,-1.256903267E1,1.755097170E1
2.306366539E0,-8.349840641E-1,-1.168610382E1,-1.130905914E1,1.628364331E1
2.316365339E0,1.541399062E-1,-1.131100464E1,-1.005597210E1,1.513555945E1
2.326364172E0,8.477473259E-1,-1.113739586E1,-8.609014511E0,1.410231871E1
2.336363072E0,5.935520530E-1,-1.111726761E1,-8.281879425E0,1.387571511E1
2.346361938E0,-2.448400855E-1,-1.127797318E1,-7.818367004E0,1.372514074E1
2.356360838E0,-9.801954031E-1,-1.153086853E1,-7.992925644E0,1.406444355E1
2.366359671E0,-1.483091831E0,-1.188415051E1,-8.302378654E0,1.457264856E1
2.376358571E0,-1.677948594E0,-1.231693077E1,-8.610404015E0,1.512155258E1
2.386357437E0,-2.418368816E0,-1.230279541E1,-8.766895294E0,1.529920703E1
2.396356237E0,-2.624446869E0,-1.230272198E1,-8.712282181E0,1.530191329E1
2.406355103E0,-2.524198532E0,-1.226250076E1,-7.551936150E0,1.462095219E1
2.416353969E0,-2.245767355E0,-1.208334541E1,-6.363674641E0,1.384005283E1
2.426352769E0,-1.595947027E0,-1.178862000E1,-4.451775551E0,1.270184687E1
2.436351635E0,-7.134664059E-2,-1.156893921E1,-7.310237885E-1,1.159223191E1
2.446350501E0,6.031407118E-1,-1.033649826E1,4.217267513E0,1.117999643E1
2.456349367E0,1.498508215E0,-9.763909340E0,7.767560482E0,1.256640157E1
2.466348233E0,1.821376562E0,-9.465535164E0,1.210613060E1,1.547488826E1
2.476347099E0,1.690684319E0,-8.906637192E0,1.483007717E1,1.738153585E1
2.486345965E0,2.141444921E0,-8.879325867E0,1.678746414E1,1.911144072E1
2.496344831E0,3.323544502E0,-8.828854561E0,1.860095215E1,2.085641488E1
2.506343631E0,3.807930946E0,-8.023197174E0,2.080908203E1,2.262498455E1
2.516342497E0,4.342226028E0,-7.131487370E0,2.360997581E1,2.504284323E1
2.526341363E0,4.028745651E0,-6.866788864E0,2.278101349E1,2.413209805E1
2.536340163E0,4.223212242E0,-6.273039818E0,2.607284164E1,2.714736859E1
2.546339029E0,3.082685471E0,-5.571500301E0,2.697284698E1,2.771423894E1
2.556337895E0,5.090489864E0,-6.390184402E0,2.611440468E1,2.736255974E1
2.566336761E0,7.558770657E0,-7.760692596E0,2.673593712E1,2.884742098E1
2.576335627E0,7.526184559E0,-7.805751801E0,2.812794876E1,3.014555882E1
2.586334493E0,7.265794277E0,-8.333769798E0,2.848896790E1,3.055920119E1
2.596333359E0,6.627414703E0,-9.038970947E0,2.828100967E1,3.042106391E1
2.606332225E0,5.190287590E0,-9.492614746E0,2.721103859E1,2.928292064E1
2.616330991E0,4.069751263E0,-9.995433807E0,2.392852020E1,2.624967907E1
2.626329791E0,2.901434898E0,-1.027338409E1,2.041504288E1,2.303768046E1
2.636328524E0,2.047152996E0,-1.041910744E1,1.792270660E1,2.083199576E1
2.646327224E0,1.430908680E0,-1.057528973E1,1.539963722E1,1.873587679E1
2.656325957E0,8.099737167E-1,-1.074193001E1,1.292904091E1,1.682870216E1
2.666324690E0,5.568075180E-1,-1.099361134E1,1.106200409E1,1.560568676E1
2.676323356E0,4.063155651E-1,-1.123200130E1,9.408935547E0,1.465779703E1
2.686322089E0,1.045181751E-1,-1.116115856E1,7.749242306E0,1.358797780E1
2.696320822E0,-8.904910088E-2,-1.102991295E1,6.638488293E0,1.287386640E1
2.706319555E0,-1.278834343E-1,-1.066031075E1,5.030540943E0,1.178833837E1
2.716318355E0,2.661173344E-1,-1.063029861E1,3.232081890E0,1.111397411E1
2.726317121E0,4.259102345E-1,-1.053760433E1,1.033189297E0,1.059669688E1
2.736315887E0,7.418601513E-1,-1.031809616E1,-2.449069738E0,1.063068236E1
2.746314653E0,5.209944248E-1,-9.600304604E0,-6.763921738E0,1.175533585E1
2.756313353E0,3.371176720E-1,-9.736682892E0,-8.767315865E0,1.310658115E1
